current[mA],power[mW],voltage[V],mpd_current[mA]
1,0.018,0.6816,-8.023e-09
2,0.030,0.7454,-4.113e-09
3,0.030,0.7686,-2.861e-09
4,0.030,0.7838,-1.943e-09
5,0.030,0.7949,-6.676e-10
6,0.030,0.8046,-2.384e-10
7,0.042,0.8130,1.311e-10
8,0.042,0.8200,7.868e-10
9,0.042,0.8264,9.179e-10
10,0.049,0.8323,5.96e-10
11,0.055,0.8377,1.109e-09
12,0.055,0.8430,8.106e-10
13,0.073,0.8477,1.311e-09
14,0.073,0.8525,1.407e-09
15,0.079,0.8569,9.418e-10
16,0.103,0.8613,6.199e-10
17,0.127,0.8650,1.073e-09
18,0.406,0.8680,7.51e-10
19,0.788,0.8703,1.264e-09
20,1.164,0.8725,1.037e-09
21,1.522,0.8747,9.298e-10
22,1.928,0.8770,7.749e-10
23,2.328,0.8791,1.299e-09
24,2.716,0.8813,1.204e-09
25,3.086,0.8835,8.106e-10
26,3.480,0.8857,5.245e-10
27,3.880,0.8878,9.775e-10
28,4.226,0.8900,7.033e-10
29,4.602,0.8922,1.228e-09
30,4.978,0.8943,6.199e-10
31,5.390,0.8965,5.126e-10
32,5.724,0.8986,6.914e-10
33,6.075,0.9008,1.502e-09
34,6.482,0.9029,1.204e-09
35,6.827,0.9051,8.106e-10
36,7.209,0.9072,1.073e-10
37,7.549,0.9093,7.153e-10
38,7.913,0.9115,1.097e-09
39,8.264,0.9135,9.298e-10
40,8.628,0.9156,1.204e-09
41,8.992,0.9178,7.629e-10
42,9.368,0.9198,2.98e-10
43,9.725,0.9219,2.742e-10
44,10.065,0.9239,6.318e-10
45,10.435,0.9260,1.049e-09
46,10.774,0.9281,1.252e-09
47,11.120,0.9301,1.18e-09
48,11.502,0.9321,4.053e-10
49,11.823,0.9341,1.597e-09
50,12.211,0.9361,9.537e-10
51,12.515,0.9381,1.121e-09
52,12.890,0.9402,1.168e-09
53,13.279,0.9421,5.484e-10
54,13.606,0.9441,2.456e-09
55,13.927,0.9461,2.146e-10
56,14.285,0.9481,8.345e-11
57,14.612,0.9500,7.272e-10
58,14.964,0.9520,6.199e-10
59,15.310,0.9539,7.153e-10
60,15.619,0.9558,6.676e-10
61,16.019,0.9578,8.345e-10
62,16.316,0.9598,7.033e-10
63,16.722,0.9616,1.347e-09
64,16.977,0.9635,1.049e-09
65,17.311,0.9655,9.656e-10
66,17.687,0.9673,7.868e-10
67,18.062,0.9693,1.252e-09
68,18.384,0.9711,6.676e-10
69,18.760,0.9730,8.345e-10
70,19.033,0.9748,9.775e-10
71,19.348,0.9768,1.013e-09
72,19.766,0.9786,1.132e-09
73,20.063,0.9805,1.24e-09
74,20.360,0.9823,1.812e-09
75,20.658,0.9842,-4.172e-10
76,20.979,0.9860,1.454e-09
77,21.343,0.9878,1.311e-10
78,21.646,0.9896,-5.484e-10
79,22.010,0.9915,5.245e-10
80,22.337,0.9932,3.576e-11
81,22.604,0.9950,6.437e-10
82,22.943,0.9968,1.431e-10
83,23.289,0.9986,2.503e-09
84,23.562,0.9998,1.991e-09
85,23.889,1.0016,2.623e-10
86,24.180,1.0034,2.027e-10
87,24.508,1.0051,3.207e-09
88,24.817,1.0069,-8.345e-11
89,25.114,1.0087,1.585e-09
90,25.460,1.0104,1.609e-09
91,25.823,1.0121,5.126e-10
92,26.054,1.0138,2.038e-09
93,26.454,1.0155,-6.795e-10
94,26.678,1.0172,-3.576e-11
95,26.975,1.0190,1.001e-09
96,27.279,1.0207,8.583e-10
97,27.564,1.0223,2.754e-09
98,27.879,1.0241,2.861e-09
99,28.188,1.0258,1.407e-09
100,28.564,1.0275,8.821e-10
101,28.801,1.0292,-2.384e-11
102,29.092,1.0309,7.153e-10
103,29.419,1.0326,-1.383e-09
104,29.662,1.0342,9.894e-10
105,29.959,1.0359,7.749e-10
106,30.231,1.0376,2.289e-09
107,30.480,1.0393,6.914e-10
108,30.735,1.0409,-3.457e-10
109,30.977,1.0427,1.669e-10
110,31.256,1.0443,-1.192e-10
111,31.468,1.0460,1.121e-09
112,31.711,1.0478,1.49e-09
113,31.905,1.0495,1.86e-09
114,32.081,1.0513,1.121e-09
115,32.226,1.0529,3.576e-11
116,32.360,1.0547,9.179e-10
117,31.935,1.0570,9.537e-11
118,32.226,1.0585,8.821e-10
119,32.529,1.0600,1.824e-09
120,32.808,1.0615,9.656e-10
121,33.136,1.0629,-8.345e-11
122,33.403,1.0644,-2.623e-10
123,33.742,1.0659,1.121e-09
124,34.003,1.0674,1.526e-09
125,34.336,1.0688,2.253e-09
126,34.597,1.0703,2.205e-09
127,34.924,1.0717,1.204e-09
128,35.240,1.0731,-1.192e-11
129,35.494,1.0746,1.359e-09
130,35.840,1.0761,-6.437e-10
131,36.107,1.0775,1.24e-09
132,36.355,1.0789,1.669e-10
133,36.646,1.0804,1.323e-09
134,36.974,1.0818,-7.391e-10
135,37.247,1.0832,1.776e-09
136,37.526,1.0846,8.583e-10
137,37.786,1.0861,8.345e-10
138,38.059,1.0875,2.456e-09
139,38.356,1.0888,1.466e-09
140,38.599,1.0902,1.049e-09
141,38.890,1.0916,1.121e-09
142,39.217,1.0930,-2.623e-10
143,39.478,1.0944,8.345e-10
144,39.714,1.0958,8.821e-10
145,39.999,1.0971,2.861e-10
146,40.290,1.0985,3.457e-10
147,40.521,1.0999,9.775e-10
148,40.836,1.1012,1.144e-09
149,41.085,1.1026,1.431e-09
150,41.358,1.1040,4.172e-10
151,41.649,1.1053,5.722e-10
152,41.885,1.1066,6.557e-10
153,42.170,1.1080,6.318e-10
154,42.449,1.1093,-7.153e-11
155,42.710,1.1107,1.55e-09
156,42.922,1.1119,1.347e-09
157,43.249,1.1133,1.49e-09
158,43.492,1.1146,1.013e-09
159,43.819,1.1160,1.562e-09
160,44.038,1.1173,1.204e-09
161,44.256,1.1186,9.656e-10
162,44.541,1.1198,2.503e-10
163,44.814,1.1211,4.292e-10
164,45.044,1.1225,9.418e-10
165,45.311,1.1237,-9.537e-11
166,45.596,1.1250,9.537e-11
167,45.820,1.1263,1.24e-09
168,46.051,1.1276,1.025e-09
169,46.257,1.1288,5.96e-10
170,46.560,1.1301,1.073e-09
171,46.790,1.1314,1.109e-09
172,47.045,1.1327,1.097e-09
173,47.281,1.1340,9.537e-10
174,47.578,1.1353,2.384e-10
175,47.791,1.1365,1.323e-09
176,48.027,1.1378,2.301e-09
177,48.336,1.1390,-3.219e-10
178,48.488,1.1402,1.717e-09
179,48.743,1.1415,-1.061e-09
180,49.015,1.1427,-3.219e-10
181,49.234,1.1440,1.192e-09
182,49.488,1.1452,7.153e-11
183,49.737,1.1464,6.557e-10
184,49.955,1.1476,-2.027e-10
185,50.174,1.1488,1.037e-09
186,50.410,1.1501,5.722e-10
187,50.725,1.1513,2.861e-10
188,50.925,1.1525,5.722e-10
189,51.119,1.1537,-2.384e-11
190,51.356,1.1549,5.007e-10
191,51.647,1.1562,5.841e-10
192,51.853,1.1574,2.861e-10
193,52.065,1.1585,5.484e-10
194,52.265,1.1597,9.418e-10
195,52.562,1.1609,-3.099e-10
196,52.750,1.1621,1.073e-10
197,52.957,1.1632,1.192e-11
198,53.223,1.1645,1.013e-09
199,53.442,1.1656,7.629e-10
200,53.648,1.1668,4.292e-10
201,53.878,1.1680,2.158e-09
202,54.078,1.1691,5.96e-10
203,54.321,1.1703,-3.576e-11
204,54.527,1.1714,-1.323e-09
205,54.763,1.1726,1.061e-09
206,55.018,1.1737,1.299e-09
207,55.170,1.1748,3.457e-10
208,55.436,1.1760,-2.027e-10
209,55.618,1.1772,7.391e-10
210,55.855,1.1783,5.126e-10
211,56.037,1.1794,1.419e-09
212,56.291,1.1806,-9.418e-10
213,56.540,1.1817,7.987e-10
214,56.704,1.1828,3.338e-10
215,56.892,1.1839,5.603e-10
216,57.080,1.1850,9.894e-10
217,57.322,1.1862,3.099e-10
218,57.528,1.1873,-1.192e-11
219,57.716,1.1884,1.001e-09
220,57.916,1.1895,3.576e-10
221,58.153,1.1906,7.272e-10
222,58.371,1.1917,-7.629e-10
223,58.571,1.1928,7.272e-10
224,58.753,1.1939,3.219e-10
225,58.953,1.1950,-6.676e-10
226,59.165,1.1961,2.015e-09
227,59.365,1.1972,1.192e-10
228,59.590,1.1983,5.96e-11
229,59.802,1.1993,1.025e-09
230,59.929,1.2004,7.391e-10
231,60.105,1.2015,5.364e-10
232,60.348,1.2025,1.311e-09
233,60.517,1.2036,9.537e-10
234,60.742,1.2047,-4.649e-10
235,60.942,1.2057,4.649e-10
236,61.197,1.2068,9.418e-10
237,61.342,1.2079,8.941e-10
238,61.560,1.2089,1.645e-09
239,61.730,1.2100,6.199e-10
240,61.906,1.2110,1.574e-09
241,62.076,1.2121,-2.384e-11
242,62.300,1.2131,2.015e-09
243,62.470,1.2142,8.464e-10
244,62.615,1.2152,4.172e-10
245,62.840,1.2163,-3.934e-10
246,63.040,1.2173,1.252e-09
247,63.216,1.2183,1.109e-09
248,63.446,1.2193,-3.815e-10
249,63.531,1.2204,1.407e-09
250,63.749,1.2214,1.55e-10
251,63.943,1.2224,6.437e-10
252,64.119,1.2234,3.815e-10
253,64.313,1.2244,4.172e-10
254,64.440,1.2254,1.585e-09
255,64.659,1.2265,-5.96e-10
256,64.822,1.2275,1.132e-09
257,65.029,1.2285,1.204e-09
258,65.186,1.2295,1.419e-09
259,65.423,1.2305,1.931e-09
260,65.520,1.2315,1.109e-09
261,65.750,1.2325,-3.576e-11
262,65.877,1.2335,8.464e-10
263,66.084,1.2345,1.073e-09
264,66.217,1.2354,5.722e-10
265,66.435,1.2364,1.013e-09
266,66.581,1.2374,1.299e-09
267,66.769,1.2384,9.775e-10
268,66.926,1.2394,1.407e-09
269,67.126,1.2404,1.299e-09
270,67.242,1.2413,-9.298e-10
271,67.424,1.2423,1.574e-09
272,67.611,1.2433,8.821e-10
273,67.739,1.2443,3.219e-10
274,67.884,1.2452,-3.099e-10
275,68.109,1.2462,-7.033e-10
276,68.278,1.2471,-1.836e-09
277,68.412,1.2480,1.287e-09
278,68.600,1.2490,-6.676e-10
279,68.745,1.2500,9.537e-11
280,68.885,1.2509,5.364e-10
281,69.085,1.2519,1.335e-09
282,69.176,1.2528,6.914e-10
283,69.388,1.2537,-2.384e-10
284,69.515,1.2547,4.411e-09
285,69.685,1.2556,2.682e-09
286,69.855,1.2566,-1.073e-10
287,70.019,1.2575,-5.96e-11
288,70.152,1.2584,3.457e-10
289,70.279,1.2594,5.245e-10
290,70.485,1.2603,2.146e-10
291,70.655,1.2612,1.669e-10
292,70.801,1.2621,1.073e-10
293,70.922,1.2631,5.484e-10
294,71.104,1.2640,1.526e-09
295,71.189,1.2649,-2.861e-10
296,71.377,1.2658,-1.073e-10
297,71.486,1.2667,-4.816e-09
298,71.644,1.2676,-1.633e-09
299,71.813,1.2685,4.888e-10
300,71.935,1.2694,4.768e-10
301,72.068,1.2703,2.623e-09
302,72.238,1.2712,5.484e-10
303,72.389,1.2721,1.013e-09
304,72.535,1.2730,3.099e-10
305,72.638,1.2739,1.347e-09
306,72.771,1.2748,2.182e-09
307,72.990,1.2757,-1.037e-09
308,73.087,1.2766,2.944e-09
309,73.226,1.2774,1.431e-09
310,73.347,1.2784,-4.649e-10
311,73.463,1.2792,5.841e-10
312,73.638,1.2801,1.645e-09
313,73.766,1.2810,3.576e-10
314,73.948,1.2819,1.8e-09
315,74.014,1.2827,-2.384e-10
316,74.184,1.2836,2.086e-09
317,74.360,1.2844,8.225e-10
318,74.487,1.2853,3.934e-10
319,74.566,1.2861,-1.907e-10
320,74.681,1.2870,-1.788e-10
321,74.821,1.2879,7.272e-10
322,74.978,1.2888,2.193e-09
323,75.130,1.2896,1.192e-09
324,75.263,1.2905,1.788e-10
325,75.366,1.2913,1.895e-09
326,75.506,1.2922,4.053e-10
327,75.591,1.2931,-1.192e-11
328,75.821,1.2939,-5.722e-10
329,75.894,1.2948,-1.18e-09
330,76.045,1.2956,1.919e-09
331,76.118,1.2965,-1.431e-10
332,76.240,1.2973,2.241e-09
333,76.367,1.2981,-1.24e-09
334,76.555,1.2990,3.219e-10
335,76.585,1.2998,9.775e-10
336,76.743,1.3006,4.888e-10
337,76.870,1.3014,9.418e-10
338,77.003,1.3023,2.539e-09
339,77.094,1.3031,2.277e-09
340,77.228,1.3039,3.934e-10
341,77.337,1.3047,4.888e-10
342,77.470,1.3055,8.583e-10
343,77.567,1.3063,-2.468e-09
344,77.670,1.3072,1.359e-09
345,77.786,1.3080,5.841e-10
346,77.949,1.3088,3.195e-09
347,78.077,1.3096,-2.742e-10
348,78.131,1.3104,1.001e-09
349,78.313,1.3112,3.695e-10
350,78.325,1.3120,6.557e-10
351,78.495,1.3128,-7.033e-10
352,78.628,1.3136,1.657e-09
353,78.695,1.3144,7.51e-10
354,78.792,1.3152,8.225e-10
355,78.980,1.3160,7.629e-10
356,79.047,1.3168,1.657e-09
357,79.186,1.3175,1.478e-09
358,79.320,1.3184,7.153e-10
359,79.398,1.3192,1.669e-10
360,79.502,1.3200,6.914e-10
361,79.538,1.3208,1.562e-09
362,79.732,1.3216,4.172e-10
363,79.756,1.3223,2.563e-09
364,79.944,1.3231,1.955e-09
365,80.005,1.3238,-1.097e-09
366,80.035,1.3246,1.478e-09
367,80.150,1.3254,3.815e-10
368,80.302,1.3262,1.562e-09
369,80.417,1.3269,-6.557e-10
370,80.502,1.3277,7.51e-10
371,80.563,1.3285,5.245e-10
372,80.666,1.3292,-2.861e-10
373,80.738,1.3300,2.98e-10
374,80.896,1.3307,1.049e-09
375,80.999,1.3315,7.272e-10
376,81.114,1.3323,-2.05e-09
377,81.139,1.3330,-1.073e-10
378,81.242,1.3338,1.192e-11
379,81.327,1.3345,6.08e-10
380,81.436,1.3353,3.099e-10
381,81.551,1.3360,3.576e-11
382,81.684,1.3368,1.991e-09
383,81.684,1.3375,2.396e-09
384,81.806,1.3382,4.292e-10
385,81.921,1.3390,1.729e-09
386,82.054,1.3397,7.629e-10
387,82.121,1.3404,5.007e-10
388,82.218,1.3412,1.192e-11
389,82.254,1.3419,3.719e-09
390,82.357,1.3426,2.193e-09
391,82.369,1.3434,-7.153e-11
392,82.533,1.3441,-1.144e-09
393,82.588,1.3448,6.557e-10
394,82.691,1.3455,-7.272e-10
395,82.764,1.3463,-7.987e-10
396,82.873,1.3470,2.42e-09
397,82.933,1.3477,2.146e-10
398,83.006,1.3484,1.037e-09
399,83.067,1.3491,8.225e-10
400,83.200,1.3498,9.537e-11
401,83.267,1.3506,3.576e-11
402,83.279,1.3513,-1.907e-10
403,83.424,1.3520,-1.431e-10
404,83.497,1.3527,7.153e-10
405,83.558,1.3534,1.669e-10
406,83.697,1.3541,9.418e-10
407,83.752,1.3548,3.815e-10
408,83.776,1.3555,3.374e-09
409,83.861,1.3562,1.311e-10
410,83.934,1.3569,8.345e-10
411,84.043,1.3575,9.656e-10
412,84.110,1.3582,1.276e-09
413,84.182,1.3589,1.776e-09
414,84.213,1.3596,-1.025e-09
415,84.322,1.3603,3.219e-10
416,84.407,1.3610,3.338e-10
417,84.437,1.3617,1.073e-10
418,84.564,1.3624,2.146e-10
419,84.613,1.3631,-5.96e-10
420,84.667,1.3637,1.562e-09
421,84.680,1.3644,4.53e-10
422,84.777,1.3651,-1.907e-10
423,84.868,1.3657,3.576e-10
424,84.940,1.3664,7.868e-10
425,85.013,1.3671,7.868e-10
426,85.001,1.3677,2.98e-10
427,85.177,1.3684,-8.583e-10
428,85.171,1.3691,4.172e-10
429,85.256,1.3698,1.192e-11
430,85.383,1.3704,1.776e-09
431,85.389,1.3711,9.775e-10
432,85.419,1.3717,1.442e-09
433,85.498,1.3724,1.705e-09
434,85.595,1.3730,8.225e-10
435,85.595,1.3737,-3.457e-10
436,85.674,1.3744,6.676e-10
437,85.729,1.3750,1.192e-11
438,85.759,1.3756,-1.192e-11
439,85.832,1.3763,-9.06e-10
440,85.935,1.3770,6.914e-10
441,85.977,1.3776,5.364e-10
442,86.062,1.3782,5.841e-10
443,86.111,1.3789,1.669e-10
444,86.171,1.3796,4.649e-10
445,86.183,1.3802,8.583e-10
446,86.214,1.3808,1.705e-09
447,86.341,1.3815,8.106e-10
448,86.365,1.3821,1.788e-10
449,86.389,1.3827,1.86e-09
450,86.492,1.3834,4.172e-10
451,86.486,1.3840,3.576e-10
452,86.541,1.3846,0
453,86.680,1.3853,8.225e-10
454,86.735,1.3859,1.538e-09
455,86.741,1.3865,8.106e-10
456,86.826,1.3872,5.007e-10
457,86.784,1.3878,1.872e-09
458,86.844,1.3884,7.868e-10
459,86.911,1.3890,1.8e-09
460,87.038,1.3897,1.085e-09
461,87.014,1.3902,1.788e-10
462,87.087,1.3908,1.192e-11
463,87.172,1.3915,-7.391e-10
464,87.153,1.3921,3.934e-10
465,87.196,1.3927,-2.146e-10
466,87.263,1.3933,-7.153e-11
467,87.305,1.3939,-1.001e-09
468,87.275,1.3945,4.53e-10
469,87.390,1.3951,6.914e-10
470,87.444,1.3957,1.204e-09
471,87.499,1.3963,2.623e-10
472,87.499,1.3969,1.025e-09
473,87.578,1.3975,1.192e-10
474,87.554,1.3981,1.848e-09
475,87.632,1.3987,1.86e-09
476,87.651,1.3993,1.955e-09
477,87.723,1.3999,1.156e-09
478,87.687,1.4005,9.418e-10
479,87.796,1.4010,1.252e-09
480,87.802,1.4017,1.919e-09
481,87.857,1.4022,-7.153e-11
482,87.863,1.4028,1.359e-09
483,88.008,1.4034,2.027e-10
484,87.954,1.4040,6.437e-10
485,88.039,1.4046,2.038e-09
486,88.051,1.4051,-6.199e-10
487,88.051,1.4057,3.195e-09
488,88.081,1.4063,8.821e-10
489,88.099,1.4069,1.49e-09
490,88.148,1.4074,6.557e-10
491,88.190,1.4080,-3.695e-10
492,88.245,1.4086,2.289e-09
493,88.257,1.4092,5.722e-10
494,88.263,1.4097,1.812e-09
495,88.311,1.4103,2.611e-09
496,88.360,1.4108,1.788e-09
497,88.396,1.4114,2.813e-09
498,88.402,1.4120,1.025e-09
499,88.439,1.4126,-3.695e-10
500,88.445,1.4131,9.537e-10
